##TITLE=QuickScan
##JCAMP-DX=6.00 $$ Magritek SpinSolve SPA261 1.3.23.1837
##DATA TYPE=NMR FID
##DATA CLASS=NTUPLES
##ORIGIN=SPA261 at Magritek, NZ
##OWNER=Copyright (C) 2016 by Magritek, NZ
##LONGDATE=2016/04/19 03:18:58
##.OBSERVE FREQUENCY=43.4352980865543
##.OBSERVE NUCLEUS=^1H
##.DELAY=( 20.0,  20.0)
##.ACQUISITION MODE=SIMULTANEOUS
##.FIELD= 1.0
##.AVERAGES= 1
##.DIGITISER RES=16
##.PULSE SEQUENCE= PULSE ACQUISITION
p=  10.0
rd= 8446
##SPECTROMETER/DATA SYSTEM=Magritek SpinSolve SPA261 1.3.23.1837
##SAMPLE DESCRIPTION=solvent=D2O  
##DATA PROCESSING=Ordinates are scaled between -32767 and +32767.
##NTUPLES=NMR FID
##VAR_NAME=        TIME,            FID/REAL,            FID/IMAG, PAGE NUMBER
##SYMBOL=             X,                   R,                   I,           N
##VAR_TYPE= INDEPENDENT,           DEPENDENT,           DEPENDENT,        PAGE
##VAR_FORM=        AFFN,                ASDF,                ASDF,        AFFN
##VAR_DIM=        32768,               32768,               32768,           2
##UNITS=        SECONDS,     ARBITRARY UNITS,     ARBITRARY UNITS,            
##FIRST=              0,                   0,                   0,           1
##LAST=          6.5536,   -1.03834764631384,   -14.3943748253364,           2
##MIN=                0,   -30562.7246216016,    -28611.219027827,           1
##MAX=           6.5536,    34023.5373267656,    31444.0319934532,           2
##FACTOR=  2.000061E-04,    1.03834764631384,   0.959624988355759,           1
##PAGE=N=1
##DATA TABLE=(X++(R..R)), XYDATA   $$ Real data points
0@L2767k304l290l239m651m982n471n657n699n581n205m712m048l257k340j383l82O22J608
19b7204K501L316L989M540M915N125N155N004M658M173L570K810J980J110J76p70j652k459
37B0937l194l837m290m644m776m774m626m266l795l182k466j613p62J25J034J866K654L371
55a6238L951M376M685M804M747M576M193L683L062K292J480O14k76j168k013k801l458m019
73A2490m426m713m796m744m518m136l634k998k252j436n88K97J127J956K659L329L870M209
91h304M469M561M496M267L897L410K795K095J339N41l03j049j843k525l117l620l953m159
109B997m281m185l958l617l164k566j895j171m20L80J130J849K521L081L564L885M071M157
127B378M051L843L488L015K429J777J028K83m97j233j968k606l149l610l893m090m129m035
145f918l801l406k946k317j682r43k09N71J319J984K625L143L558L829M010M039L904L657
163A0417L280K792K250J558Q80J46n96j277j939k528l045l438l704l837l870l750l504l162
181a3327k654k124j461q00j01N87J286J944K473K985L364L626L772L771L643L429L053K599
199A6065K019J411P48J0o49j355j981k509l011l408l616l749l763l601l352k998k506j931
217a8176j309o36N5P82J394K039K575L021L371L592L696L699L499L248K856K350J821J196N18
236A9591j51q01j459k038k569k969l298l491l578l542l361l104k691k250j684j071m71J98Q52
255a7887J486J999K523K939L208L399L488L430L249K985K628K153J605J011L65k59q82j498
273A5942k056k507k894l230l345l433l388l203k927k512k055j508r23k93L20R85J569K054
291a3404K544K918L170L339L368L270L106K801K385J901J376P80J63m42j039j592k098k536
309A0010k871l103l210l233l122k928k624k237j763j218o76o3N41J062J616K074K489K796
327f460L007L108L129L020K801K527K106J654J146O08Nn57j086j632k065k476k749k972l062
346E2l051k966k742k426k070j616j037n43J5O00J168J628K090K467K723K915L022TK839K659
366H749K344J935J505R80M10j01o40j173j657k083k411k678k819k910k843k715k516k184j793
385a2600j333q80l51J90P15J207J605K037K351K571K717K767K729K582K380K037J669J247P57
404A4397K53k51p32j201j649j999k326k543k650k725k680k513k293j975j635j155p19k30K63
423a4363P98J246J652K027K307K538K657K689K652K477K246J945J549J131O72J70l36p93j266
442A1998j658k010k263k496k608k603k532k382k141j849j453j039n68j28L87Q11J243J611
460i680J988K174K361K477K462K432K211K013J716J331R39M98M3m05q33j260j588j909k141
479D829k311k396k376k307k172j895j617j251q61m29j4M45Q87J279J621J907K174K317K379
498B09K395K266K135J893J574J237Q21L85n2m67r25j280j644j935k127k314k353k321k241
517d744k075j825j517j142p75l53J00M97R24J255J613J877K058K182K267K183K107J946J678
536H256J372J071O68K70j30n40r18j266j565j801k008k066k145k136j978j813j581j300r46
555a0556n82j94J94N87R61J273J573J830J958K113K129K068J968J778J533J259R02N29J63k33
575A1253o37r92j327j615j821j993k090k118k038j937j758j485j202q86m95j15K54O50J012
594i340J292J581J784J935K004K023J985J838J654J371J137P71M49P1l01o25r84j268j517
613E860j704j851j898j907j855j723j541j303j012p00l46k1L29O83R73J263J486J693J813
632a761J867J856J779J668J469J233R58O69K96l0l91p18j026j276j537j700j823j857j861
651b185j772j649j442j207r16n84k79Q5M08P37J032J297J540J670J761J819J813J719J578
670E425J361J129Q65N42K21j13m38p28j040j242j447j609j700j721j709j625j458j272j059
689g618p66m80j80J57M26P49J020J230J425J542J625J668J622J543J399J237R78P21M26J14
709H838j81m71p67j003j237j424j567j615j624j621j510j354j182r48o73l87r4K24N15P79
729g302J045J251J426J525J614J593J577J446J330J129Q72O31L33M2k56n22p87j017j230j408
749C292j470j518j546j486j395j241j044p89n70k84j2K78N26P84R86J211J329J416J474J476
769A417J407J321J162R70P51N23K51k8k76n60p70r87j190j286j424j466j414j342j282j148
789e371r29p15m61k27M1L32N61Q09R75J161J329J384J427J401J342J240J088Q74O73M29J61o2
811G462l47o00q10j006j170j265j338j392j336j290j185r97q26o24l96j12J26L66N79P88R90
832d383J135J242J280J326J291J209J115R54P85N56L40J04j38l70n64p94r63j098j223j228
852E76j309j224j169j088r02p59n14l20p7J61L69N97Q06R67J077J185J257J240J214J138J021
873D246Q77O93M95K59M8j70m37o28p81r47j099j170j200j216j165j085r78q15o46m21k39J2
895f367K20M02O47P86R37J068J121J152J167J123J029R02P76N89M11J78j5k23m46o23p68r13
917C153j019j096j133j101j072j011q59p14n69l75j58L6K23M22O38P63R09J010J057J102J093
938A299J043R51Q47O81N32L48J49o6k66m56o35p71q87r92j046j084j061r84r24q15o40m57l11
961e545j20J24K64M55O23P79Q94R39J026J052R69R57Q58P27O04M50K52Q4j14l03m39o18p50
984C168q70q91r62j000r44q87q25p06n57m18k31o4J38K63M68O15P29Q38R05R22R68R26Q68P85
1008C238O74N24L79K01L5j25l22m65o12p00q31r40r18r23r00q52p43o30m97l61j90PJ72L08
1032d471M80O16P16Q18Q83R06Q93Q61P81P05O15M51L15J56j6j71l54m59o02o98p67q37q47q69
1056h95q04p57o54n59m18k90j38L5J89L36M82N76O71P54Q05Q33P95P76P46O32N01L91K73R0m0
1081D330j84l37m65n99o67p51p99q00p73p94o83o08m78l83k29p5N9J97L70M55N87O71P30P77
1105d49Q02P59P37O61N64M80L45J81M2n9k24l51m53n75o27p36p42p40p21o74o28n28m36l08
1129c680j57o7R2K30L37M49N60O18P03O86P00P10O62N78M86L91K81J66J4j09k08l53m54n42
1153B093o11o68o83o93o80o23n81m65l81k79j30lJ08K48L56M56N55N84O59O71O86O60O08N23
1177B410M55L52K51J00j2j00k47l69m45n15n88o28o40o49o12n82n14m02l22k18r4J3J30K53
1201b973L51M12N19N23O12O42N73O00N30M70L76L04J82R5k7j51k48l36l98n12n43n85n91n84
1225g59n71m98m48l74k66j67q2L7J41K75L37M17M97N45N76N63N74N57N00M14L51K56J59P3q3
1250C024j65k45l40m20m68n26n60n48n61n09m51m20l22k30j45j7M6J69K57L20M01M73M77N08
1274b52N39N23M95M23L70L06K10J18L4o4j70k55l03l71m73m89m86n24m76m67m12l46k79k04r8
1299b651j7O9J69K40L07L95M27M76M94M85M77M52M10L43K69J84Q5%o9j79k63l09l70m50m60
1324E14m73m63m85m17l70l27k39j68j03QJ15J54K61L11L62M15M40M56M44M46M00L53K84K39
1348B157J50P0lr9j73k55k91l67l74m12m31m44m18l45l52k79k14j31p3RR2J66K52K87L48L76
1374g54M25M16M09L98L52L12K84J94J39N3m1q3j71k54k80l25m14l88l96Tl93l57l05k29j91
1399a995j15o0L7J01J78K34K98L44L62L90L78TL88L25K64K44J63J03L0l1j05j61k26k77l26
1424I21l42l76l65l43l57l12k59k35j53q6n2O9Q9J52K37K77K86L10L65L47L59L30K97K49J93
1449A601J62Q7Ql1r0j68k41k53k92l25l26l54l48k98k70k58k09j26q5j1N0R8J74K20K48L15
1475g22L13L35L41L22K96K66K31J75J04Q6No3j07j58k15k67k60l01l26l05k90l06k53k00j69
1500a468j28n3j6M9J05J81J84K34K73K98K91K95L02K73K49J94J41J16N2J1n1j12j59j81k43
1525H37k61k97k83k81k72Tk30j89j55r0m1pN1J35J49K00K24K66K79K68K92K54K45K18J96J19
1551A355R9N4k5o8j16j50j86k15k52k72k56k64k57k48k04j67j21j02l2K2N6J03J56J76K06K41
1577d67K58K51K63K43K05J88J77J05Q9N3l3o7q8j51j60k11k39k46k42k45k27k23j95j70q9n6
1603a277l8OP3J00J45J83K21K20K24K38K41K19K04J92J43J13O6K0j4p6j04j25j91k04k24k35
1629A20k13k27k16j93j66j58r7l0l2K0N9J00J34J47K09K08K19K09K29J98J78J60J18R1O0K1k2
1656A126n2j00j34j35j94k24k01Tj97k12j68j50j26j14m2kM1M8J00J46J48J82J87K21K10J87
1682C44K01J79J27J19P7N1L0m4q2q3j28j60j80j71j94k20j85j94j74j42o6j03n6%K2Q3Q6J06
1710g57J63J84J67J93J83J93J59J66J40R4N0N4kj8n9r4j27j41j52j76j87j72j91j59j39j26
1736g54j12n9m1%K8O6R4J33J23J68J79J77J65J67J68J45J23Q4O6K7Jj3q2q0j22j45j69j43j93
1765Aj65j49j71j35j18r7m0l8MK1M6J13J19J23J35J63J96J51J46J47J25J10Q3N6M8J3n9o0p8
1794F90j02j29j46j64j59Tj43j30j23j08j04k7m0lM2O4R6J09J18J34J54J50J75J25J31J12J23
1821F86N7O4K4J1n0o1r5r8j21j33j61j43j59j39j20j27j16n2m6m3K1K6O4J07P8J34J36J39J36
1850A9J40J46J23J34P8N1M2K9kk2n6q0q9j31j29j19j50j32j37j45q2r5o3n3k4J5L6O0Q1Q3J04
1881c68J31J28J34J44TJ15J01P4P9K2K5mj4o4q9Tj09j45j19j31j30j33j09r4j01n0Tl3K9L3O5
1912f08P7Q0J18J43J19J01J35J27J22P4Q2N9L3J9lk5o1q0Tj10j07j24j31j33j26q7Tp8m0m8k3
1943f62J4K6P3O6Q3R6J30Q8J38J26J23R0R2O9N6J9Tk4l8m3o9p6j13j15j16j05j42r1j04q2p3
1974e45m9m2oK4K7N6P9P8R3J19J21J35R3J06Q7Q6P4N5LJ6j0k4n2q8o2j09j35r7j12r3j00j12
2006c84p2n8n9j0nRL7K7Q8R7R3TJ19J21Q7R3R2O3O7N8J4Nj2m9m4o4p9q5j10j06j19q4j01r3p9
2041d50n3l1m5NM5MN6R2P2Q5J02J05J06J00J09P0Q2M8M4J6j1pl5l2q1j07p8r6j10r5j23o9p8T
2075d38m4l2j8j0K8TN3O6P7R5Q5R5J14R5Q2TO8M7L5K4j2j8l3o2n2q9r2j00q3q7j18o9p1q6l0
2110d70j8m1L0J2K7N9P3P0Q1J14Q2R4J03O9Q3P9M2PK4j3j2l3n8q4p6r8o2j11j03r2p7p4o1k9
2144d63l7j3J7PN5O1O0Q8P9R0J00P1J00O6P2N9L4K0J2k0j8k7n1o1p4r0r1r8p2q5q2o6m1l1l2
2179d61k0L8OK2Q0N6P7Q7Q3Q8Q3R7P0M2P0L0L7Ol2l1m0m8o9r5q1p7q4r8p2o7n9m0m4j3j4K0K3
2216d30O3M8L8R5P2R2R9Q4O9N6P0L9L2J3Lj0l2m0n7o8p3o2j04r0o2n6r8m0m5l5j1NkM5N4N5O5
2253b18O9Q1M9J22N4P6Q0P2L0L1Lj2j5m5l7o7n2q9q2q8p5p6n8o4Tj7j8l9LM3K4M4O6O0O9Q0Q6
2290B6R5N5P9N5O2K1K0K4j8j6m2m6o0m7q5To4r2q0m2p0l2m5pj2qK4O1L6N0P1Q5Q8M5P0Q5M7P7
2328C25L3K9J3J1jm3m0l6n2p6q3o6r5o0n6p0o6m9j9k0J3RJ3O7L8N5N8Q9R0O5O9P3M3N6M2J4K7
2365D00j2Tj1n9k1p6p3o7p6p8p0o5n2m2m3k4k2J3L2J4M4P4N1TN6Q2R5N0P3N0L1K9N5jj6k1j8
2402C41l5n6q2n1q7p4o2p4n5To2nk5l0K6J0L2P2M6N1Q0P5P0N6Q9N0L7N1QK5J0j3pl9n1p0k2q2
2440I2q9m2r0p4k0p7l1j3k6K4rJ3N5M0L6R0O9N8O2P8N4N1O3K8J8j%k9k7k4l6o7n3p7Tm9o0o9
2478b09m0o0l7mk3J2NM7L7K8O3O0P2O5Q2TL4N0M2L3K6Lj2k5jo9n0o0n7o5o9o7m5p9n4l6TjJ9K
2518c37K5TM2M7N5P7M5O7O9N0N5M5O0J1J9ml3kk5l9n5p3o4n3p5o6n5m9m2k7k4lTJ7J8M2L2L7
2556a91P5O3P1O3P2O0M1M4J5J7Tojm3l3m9p2n4o0o5o7o2m6l4l8l9Kj9jJ7K6N6O4K8O3O2O8P1
